freq,psd_x,psd_y,psd_z,psd_xyz,shapers:,zv(129.4),mzv(132.0),ei(108.2),2hump_ei(101.2),3hump_ei(149.8)
0.0,0.000e+00,0.000e+00,0.000e+00,0.000e+00,,1.000,1.000,1.000,1.000,1.000
1.5,3.071e-13,3.587e-15,4.423e-15,3.151e-13,,1.000,1.000,0.999,0.999,0.999
3.0,2.099e-01,5.873e-03,9.735e-03,2.255e-01,,1.000,0.999,0.999,0.998,0.998
4.5,1.722e+01,1.156e+00,1.953e+00,2.033e+01,,0.999,0.999,0.998,0.997,0.998
6.0,7.422e+01,6.598e+00,1.133e+01,9.215e+01,,0.999,0.999,0.998,0.996,0.997
7.5,1.352e+02,1.535e+01,2.399e+01,1.745e+02,,0.999,0.998,0.997,0.995,0.996
8.9,2.008e+02,2.349e+01,3.281e+01,2.571e+02,,0.999,0.998,0.997,0.994,0.995
10.4,2.517e+02,2.764e+01,3.523e+01,3.145e+02,,0.998,0.998,0.996,0.993,0.994
11.9,2.507e+02,2.178e+01,3.064e+01,3.031e+02,,0.998,0.997,0.995,0.992,0.993
13.4,2.531e+02,1.747e+01,2.648e+01,2.971e+02,,0.998,0.997,0.995,0.991,0.992
14.9,2.745e+02,1.415e+01,2.668e+01,3.153e+02,,0.998,0.997,0.994,0.990,0.991
16.4,2.982e+02,1.163e+01,2.348e+01,3.333e+02,,0.997,0.996,0.993,0.989,0.990
17.9,3.176e+02,1.106e+01,2.118e+01,3.498e+02,,0.997,0.996,0.993,0.988,0.989
19.4,3.458e+02,1.140e+01,2.007e+01,3.773e+02,,0.997,0.995,0.992,0.987,0.988
20.9,3.761e+02,1.154e+01,1.790e+01,4.056e+02,,0.996,0.995,0.991,0.985,0.987
22.4,4.142e+02,1.182e+01,1.837e+01,4.444e+02,,0.996,0.995,0.990,0.984,0.986
23.8,4.360e+02,9.756e+00,2.064e+01,4.664e+02,,0.996,0.994,0.990,0.983,0.985
25.3,4.248e+02,8.402e+00,1.739e+01,4.506e+02,,0.996,0.994,0.989,0.981,0.984
26.8,4.496e+02,8.031e+00,1.760e+01,4.752e+02,,0.995,0.993,0.988,0.980,0.983
28.3,4.910e+02,7.287e+00,1.687e+01,5.151e+02,,0.995,0.993,0.987,0.978,0.982
29.8,5.298e+02,7.610e+00,1.533e+01,5.527e+02,,0.995,0.992,0.986,0.977,0.981
31.3,5.587e+02,8.434e+00,1.610e+01,5.833e+02,,0.994,0.992,0.986,0.976,0.979
32.8,5.771e+02,8.622e+00,1.642e+01,6.021e+02,,0.994,0.992,0.985,0.974,0.978
34.3,6.037e+02,8.415e+00,1.442e+01,6.266e+02,,0.994,0.991,0.984,0.973,0.977
35.8,6.387e+02,9.466e+00,1.351e+01,6.617e+02,,0.993,0.991,0.983,0.971,0.976
37.3,6.805e+02,8.614e+00,1.317e+01,7.023e+02,,0.993,0.990,0.982,0.969,0.974
38.7,7.088e+02,8.029e+00,1.256e+01,7.293e+02,,0.993,0.990,0.981,0.968,0.973
40.2,7.484e+02,9.720e+00,1.158e+01,7.697e+02,,0.992,0.989,0.980,0.966,0.972
41.7,7.869e+02,1.207e+01,1.004e+01,8.090e+02,,0.992,0.989,0.979,0.964,0.970
43.2,8.338e+02,1.511e+01,1.024e+01,8.591e+02,,0.991,0.988,0.978,0.963,0.969
44.7,8.737e+02,1.762e+01,1.260e+01,9.039e+02,,0.991,0.988,0.977,0.961,0.967
46.2,9.334e+02,2.025e+01,1.196e+01,9.657e+02,,0.991,0.987,0.976,0.959,0.966
47.7,9.901e+02,2.149e+01,1.113e+01,1.023e+03,,0.990,0.987,0.975,0.957,0.964
49.2,1.043e+03,1.986e+01,1.121e+01,1.074e+03,,0.990,0.986,0.974,0.955,0.963
50.7,1.089e+03,1.881e+01,1.129e+01,1.119e+03,,0.989,0.985,0.973,0.953,0.961
52.2,1.132e+03,2.018e+01,1.092e+01,1.163e+03,,0.989,0.985,0.972,0.952,0.960
53.7,1.163e+03,2.186e+01,1.033e+01,1.196e+03,,0.989,0.984,0.971,0.950,0.958
55.1,1.214e+03,2.423e+01,1.070e+01,1.249e+03,,0.988,0.984,0.970,0.948,0.957
56.6,1.287e+03,2.562e+01,1.091e+01,1.323e+03,,0.988,0.983,0.968,0.946,0.955
58.1,1.339e+03,2.732e+01,1.127e+01,1.378e+03,,0.987,0.983,0.967,0.944,0.954
59.6,1.389e+03,2.924e+01,1.074e+01,1.429e+03,,0.987,0.982,0.966,0.941,0.952
61.1,1.458e+03,3.324e+01,1.240e+01,1.504e+03,,0.987,0.981,0.965,0.939,0.950
62.6,1.531e+03,3.697e+01,1.235e+01,1.580e+03,,0.986,0.981,0.964,0.937,0.949
64.1,1.610e+03,4.362e+01,1.075e+01,1.665e+03,,0.986,0.980,0.962,0.935,0.947
65.6,1.701e+03,5.421e+01,9.003e+00,1.764e+03,,0.985,0.980,0.961,0.933,0.945
67.1,1.780e+03,6.702e+01,1.026e+01,1.857e+03,,0.985,0.979,0.960,0.931,0.944
68.6,1.870e+03,7.729e+01,1.049e+01,1.958e+03,,0.984,0.978,0.959,0.929,0.942
70.0,1.964e+03,9.057e+01,1.137e+01,2.066e+03,,0.984,0.978,0.957,0.926,0.940
71.5,2.088e+03,1.073e+02,1.202e+01,2.208e+03,,0.983,0.977,0.956,0.924,0.938
73.0,2.199e+03,1.209e+02,1.082e+01,2.330e+03,,0.983,0.976,0.955,0.922,0.936
74.5,2.319e+03,1.481e+02,1.122e+01,2.479e+03,,0.982,0.976,0.954,0.919,0.935
76.0,2.418e+03,1.795e+02,1.075e+01,2.608e+03,,0.982,0.975,0.952,0.917,0.933
77.5,2.557e+03,2.193e+02,1.082e+01,2.787e+03,,0.981,0.974,0.951,0.915,0.931
79.0,2.683e+03,2.759e+02,1.156e+01,2.971e+03,,0.981,0.974,0.950,0.912,0.929
80.5,2.824e+03,3.609e+02,1.267e+01,3.197e+03,,0.980,0.973,0.948,0.910,0.927
82.0,2.963e+03,4.258e+02,1.236e+01,3.401e+03,,0.980,0.972,0.947,0.907,0.925
83.5,3.120e+03,4.910e+02,1.459e+01,3.625e+03,,0.979,0.972,0.945,0.905,0.923
84.9,3.297e+03,6.059e+02,1.560e+01,3.918e+03,,0.979,0.971,0.944,0.902,0.921
86.4,3.533e+03,7.553e+02,1.749e+01,4.306e+03,,0.978,0.970,0.942,0.900,0.919
87.9,3.800e+03,8.792e+02,1.888e+01,4.698e+03,,0.978,0.970,0.941,0.897,0.917
89.4,4.084e+03,8.215e+02,1.866e+01,4.924e+03,,0.977,0.969,0.939,0.894,0.915
90.9,4.376e+03,9.109e+02,1.993e+01,5.307e+03,,0.977,0.968,0.938,0.892,0.913
92.4,4.658e+03,1.203e+03,2.255e+01,5.883e+03,,0.976,0.967,0.936,0.889,0.911
93.9,5.052e+03,1.601e+03,3.100e+01,6.684e+03,,0.975,0.967,0.935,0.886,0.909
95.4,5.543e+03,1.788e+03,3.751e+01,7.369e+03,,0.975,0.966,0.933,0.884,0.907
96.9,6.033e+03,2.064e+03,4.667e+01,8.144e+03,,0.974,0.965,0.932,0.881,0.904
98.4,6.449e+03,2.052e+03,5.033e+01,8.552e+03,,0.974,0.964,0.930,0.878,0.902
99.8,7.214e+03,2.127e+03,5.866e+01,9.400e+03,,0.973,0.964,0.929,0.875,0.900
101.3,7.867e+03,1.998e+03,6.044e+01,9.926e+03,,0.973,0.963,0.927,0.873,0.898
102.8,8.601e+03,1.905e+03,6.209e+01,1.057e+04,,0.972,0.962,0.925,0.870,0.896
104.3,9.336e+03,1.743e+03,6.027e+01,1.114e+04,,0.971,0.961,0.924,0.867,0.894
105.8,1.039e+04,1.609e+03,6.049e+01,1.206e+04,,0.971,0.960,0.922,0.864,0.891
107.3,1.159e+04,1.511e+03,5.907e+01,1.316e+04,,0.970,0.960,0.921,0.861,0.889
108.8,1.336e+04,1.486e+03,6.179e+01,1.491e+04,,0.970,0.959,0.919,0.858,0.887
110.3,1.526e+04,1.531e+03,6.100e+01,1.685e+04,,0.969,0.958,0.917,0.855,0.884
111.8,1.730e+04,1.613e+03,6.087e+01,1.897e+04,,0.968,0.957,0.916,0.852,0.882
113.3,1.982e+04,1.646e+03,6.612e+01,2.153e+04,,0.968,0.956,0.914,0.849,0.880
114.8,2.349e+04,1.679e+03,7.414e+01,2.524e+04,,0.967,0.956,0.912,0.846,0.877
116.2,2.735e+04,1.865e+03,8.170e+01,2.930e+04,,0.966,0.955,0.910,0.843,0.875
117.7,3.216e+04,2.103e+03,8.701e+01,3.435e+04,,0.966,0.954,0.909,0.840,0.873
119.2,3.784e+04,2.237e+03,1.014e+02,4.018e+04,,0.965,0.953,0.907,0.837,0.870
120.7,4.439e+04,2.666e+03,1.370e+02,4.719e+04,,0.964,0.952,0.905,0.834,0.868
122.2,5.161e+04,3.130e+03,2.123e+02,5.495e+04,,0.964,0.951,0.903,0.831,0.865
123.7,5.817e+04,3.966e+03,3.411e+02,6.247e+04,,0.963,0.950,0.901,0.828,0.863
125.2,6.249e+04,4.824e+03,5.463e+02,6.786e+04,,0.962,0.950,0.900,0.824,0.860
126.7,6.283e+04,6.324e+03,7.646e+02,6.992e+04,,0.962,0.949,0.898,0.821,0.858
128.2,6.194e+04,9.062e+03,1.033e+03,7.204e+04,,0.961,0.948,0.896,0.818,0.855
129.7,6.050e+04,1.174e+04,1.220e+03,7.346e+04,,0.960,0.947,0.894,0.815,0.853
131.1,5.813e+04,1.311e+04,1.432e+03,7.268e+04,,0.960,0.946,0.892,0.812,0.850
132.6,5.037e+04,1.360e+04,1.589e+03,6.557e+04,,0.959,0.945,0.890,0.808,0.848
134.1,4.303e+04,1.419e+04,1.962e+03,5.918e+04,,0.958,0.944,0.888,0.805,0.845
135.6,3.620e+04,1.411e+04,2.392e+03,5.270e+04,,0.958,0.943,0.887,0.802,0.843
137.1,2.954e+04,1.301e+04,2.782e+03,4.532e+04,,0.957,0.942,0.885,0.798,0.840
138.6,2.405e+04,1.180e+04,3.225e+03,3.907e+04,,0.956,0.941,0.883,0.795,0.837
140.1,1.985e+04,1.075e+04,3.822e+03,3.442e+04,,0.955,0.940,0.881,0.792,0.835
141.6,1.620e+04,9.211e+03,3.979e+03,2.939e+04,,0.955,0.939,0.879,0.788,0.832
143.1,1.351e+04,7.841e+03,3.887e+03,2.524e+04,,0.954,0.939,0.877,0.785,0.830
144.6,1.155e+04,6.733e+03,3.563e+03,2.184e+04,,0.953,0.938,0.875,0.781,0.827
146.0,9.926e+03,5.882e+03,3.155e+03,1.896e+04,,0.952,0.937,0.873,0.778,0.824
147.5,8.438e+03,5.098e+03,2.960e+03,1.650e+04,,0.952,0.936,0.871,0.774,0.821
149.0,7.100e+03,4.262e+03,2.530e+03,1.389e+04,,0.951,0.935,0.869,0.771,0.819
150.5,6.039e+03,4.031e+03,2.090e+03,1.216e+04,,0.950,0.934,0.867,0.767,0.816
152.0,4.966e+03,3.614e+03,1.667e+03,1.025e+04,,0.949,0.933,0.865,0.764,0.813
153.5,4.309e+03,3.510e+03,1.435e+03,9.254e+03,,0.949,0.932,0.863,0.760,0.811
155.0,3.608e+03,3.408e+03,1.203e+03,8.218e+03,,0.948,0.931,0.861,0.757,0.808
156.5,3.166e+03,3.181e+03,1.072e+03,7.419e+03,,0.947,0.930,0.858,0.753,0.805
158.0,2.768e+03,3.108e+03,9.280e+02,6.804e+03,,0.946,0.929,0.856,0.750,0.802
159.5,2.443e+03,2.908e+03,7.938e+02,6.145e+03,,0.945,0.928,0.854,0.746,0.799
161.0,2.218e+03,2.846e+03,7.013e+02,5.765e+03,,0.945,0.927,0.852,0.743,0.797
162.4,2.017e+03,2.573e+03,6.242e+02,5.214e+03,,0.944,0.926,0.850,0.739,0.794
163.9,1.813e+03,2.346e+03,5.415e+02,4.700e+03,,0.943,0.924,0.848,0.735,0.791
165.4,1.728e+03,2.309e+03,4.924e+02,4.530e+03,,0.942,0.923,0.846,0.732,0.788
166.9,1.647e+03,2.072e+03,4.510e+02,4.170e+03,,0.941,0.922,0.843,0.728,0.785
168.4,1.666e+03,1.926e+03,4.310e+02,4.023e+03,,0.941,0.921,0.841,0.724,0.782
169.9,1.668e+03,1.790e+03,4.205e+02,3.878e+03,,0.940,0.920,0.839,0.721,0.779
171.4,1.740e+03,1.672e+03,3.974e+02,3.810e+03,,0.939,0.919,0.837,0.717,0.776
172.9,1.770e+03,1.559e+03,3.705e+02,3.700e+03,,0.938,0.918,0.835,0.713,0.773
174.4,1.210e+03,9.564e+02,2.260e+02,2.393e+03,,0.937,0.917,0.832,0.710,0.771
175.9,3.441e+02,3.221e+02,4.719e+01,7.133e+02,,0.936,0.916,0.830,0.706,0.768
177.3,2.021e+02,2.050e+02,1.978e+01,4.269e+02,,0.936,0.915,0.828,0.702,0.765
178.8,1.941e+02,1.630e+02,1.508e+01,3.722e+02,,0.935,0.914,0.826,0.698,0.762
180.3,2.444e+02,2.160e+02,1.973e+01,4.802e+02,,0.934,0.913,0.823,0.695,0.759
181.8,2.463e+02,1.736e+02,1.708e+01,4.369e+02,,0.933,0.912,0.821,0.691,0.756
183.3,2.629e+02,1.543e+02,1.621e+01,4.334e+02,,0.932,0.910,0.819,0.687,0.753
184.8,3.808e+02,2.240e+02,2.140e+01,6.263e+02,,0.931,0.909,0.816,0.683,0.750
186.3,2.909e+02,1.522e+02,1.591e+01,4.590e+02,,0.930,0.908,0.814,0.679,0.747
187.8,3.133e+02,1.391e+02,1.391e+01,4.663e+02,,0.929,0.907,0.812,0.676,0.744
189.3,3.504e+02,1.830e+02,1.757e+01,5.510e+02,,0.928,0.906,0.809,0.672,0.741
190.8,3.050e+02,1.456e+02,1.487e+01,4.654e+02,,0.928,0.905,0.807,0.668,0.738
192.2,3.172e+02,1.672e+02,1.473e+01,4.992e+02,,0.927,0.904,0.805,0.664,0.734
193.7,4.346e+02,2.146e+02,2.181e+01,6.710e+02,,0.926,0.902,0.802,0.660,0.731
195.2,4.075e+02,1.606e+02,1.834e+01,5.865e+02,,0.925,0.901,0.800,0.656,0.728
196.7,3.798e+02,1.349e+02,1.553e+01,5.302e+02,,0.924,0.900,0.798,0.652,0.725
198.2,5.192e+02,2.065e+02,2.022e+01,7.459e+02,,0.923,0.899,0.795,0.649,0.722
199.7,4.295e+02,1.699e+02,1.806e+01,6.175e+02,,0.922,0.898,0.793,0.645,0.719
201.2,3.613e+02,1.029e+02,1.333e+01,4.775e+02,,0.921,0.897,0.790,0.641,0.716
202.7,5.719e+02,1.599e+02,1.821e+01,7.500e+02,,0.920,0.895,0.788,0.637,0.713
204.2,6.665e+02,2.238e+02,2.550e+01,9.158e+02,,0.919,0.894,0.785,0.633,0.710
205.7,5.854e+02,1.408e+02,2.299e+01,7.492e+02,,0.918,0.893,0.783,0.629,0.706
207.1,5.955e+02,1.305e+02,1.958e+01,7.455e+02,,0.917,0.892,0.781,0.625,0.703
208.6,8.263e+02,1.931e+02,2.754e+01,1.047e+03,,0.916,0.890,0.778,0.621,0.700
210.1,7.425e+02,1.775e+02,2.328e+01,9.433e+02,,0.915,0.889,0.776,0.617,0.697
211.6,6.389e+02,1.329e+02,1.883e+01,7.906e+02,,0.914,0.888,0.773,0.613,0.694
213.1,1.107e+03,1.674e+02,2.696e+01,1.302e+03,,0.913,0.887,0.771,0.609,0.691
214.6,1.690e+03,2.412e+02,4.447e+01,1.975e+03,,0.912,0.886,0.768,0.605,0.687
216.1,1.311e+03,1.749e+02,4.212e+01,1.528e+03,,0.911,0.884,0.766,0.601,0.684
217.6,9.284e+02,1.140e+02,2.468e+01,1.067e+03,,0.910,0.883,0.763,0.597,0.681
219.1,1.355e+03,1.694e+02,3.249e+01,1.557e+03,,0.909,0.882,0.761,0.593,0.678
220.6,2.152e+03,2.647e+02,4.931e+01,2.466e+03,,0.908,0.881,0.758,0.589,0.674
222.1,2.280e+03,2.238e+02,5.469e+01,2.558e+03,,0.907,0.879,0.756,0.585,0.671
223.5,1.605e+03,1.502e+02,3.870e+01,1.794e+03,,0.906,0.878,0.753,0.581,0.668
225.0,2.005e+03,1.760e+02,4.456e+01,2.225e+03,,0.905,0.877,0.750,0.577,0.665
226.5,3.324e+03,2.827e+02,7.140e+01,3.678e+03,,0.904,0.875,0.748,0.573,0.661
228.0,3.557e+03,3.804e+02,7.557e+01,4.013e+03,,0.903,0.874,0.745,0.569,0.658
229.5,3.206e+03,3.044e+02,7.131e+01,3.582e+03,,0.902,0.873,0.743,0.565,0.655
231.0,2.435e+03,1.961e+02,5.123e+01,2.682e+03,,0.901,0.872,0.740,0.561,0.652
232.5,3.650e+03,2.937e+02,7.503e+01,4.019e+03,,0.900,0.870,0.737,0.557,0.648
234.0,6.158e+03,4.650e+02,1.270e+02,6.750e+03,,0.899,0.869,0.735,0.553,0.645
235.5,6.012e+03,5.120e+02,1.087e+02,6.632e+03,,0.898,0.868,0.732,0.549,0.642
237.0,4.555e+03,3.723e+02,7.710e+01,5.005e+03,,0.897,0.866,0.730,0.545,0.639
238.4,2.961e+03,2.629e+02,5.777e+01,3.282e+03,,0.896,0.865,0.727,0.541,0.635
239.9,3.895e+03,3.598e+02,6.882e+01,4.324e+03,,0.895,0.864,0.724,0.537,0.632
241.4,9.624e+03,6.189e+02,1.723e+02,1.042e+04,,0.894,0.862,0.722,0.533,0.629
242.9,1.063e+04,8.870e+02,1.760e+02,1.170e+04,,0.893,0.861,0.719,0.529,0.625
244.4,8.103e+03,8.275e+02,1.252e+02,9.055e+03,,0.892,0.860,0.716,0.525,0.622
245.9,6.105e+03,4.780e+02,1.021e+02,6.685e+03,,0.891,0.858,0.714,0.521,0.619
247.4,5.129e+03,3.831e+02,8.948e+01,5.602e+03,,0.889,0.857,0.711,0.517,0.615
248.9,5.911e+03,5.395e+02,9.372e+01,6.544e+03,,0.888,0.856,0.708,0.513,0.612
250.4,1.101e+04,1.037e+03,1.658e+02,1.222e+04,,0.887,0.854,0.706,0.509,0.609
251.9,1.361e+04,1.684e+03,1.722e+02,1.547e+04,,0.886,0.853,0.703,0.505,0.605
253.3,1.306e+04,1.795e+03,1.532e+02,1.501e+04,,0.885,0.851,0.700,0.501,0.602
254.8,1.245e+04,1.222e+03,1.744e+02,1.384e+04,,0.884,0.850,0.697,0.497,0.599
256.3,9.859e+03,8.288e+02,1.534e+02,1.084e+04,,0.883,0.849,0.695,0.493,0.595
257.8,6.743e+03,6.002e+02,1.021e+02,7.445e+03,,0.882,0.847,0.692,0.489,0.592
259.3,6.139e+03,7.156e+02,8.321e+01,6.937e+03,,0.881,0.846,0.689,0.485,0.589
260.8,8.368e+03,1.371e+03,9.238e+01,9.832e+03,,0.879,0.844,0.687,0.480,0.585
262.3,1.291e+04,2.240e+03,1.388e+02,1.529e+04,,0.878,0.843,0.684,0.476,0.582
